# Cross-section of pi- proton scattering based on resonance formation
#   sqrt(s) [GeV]             sigma [mbarn]    	  	    p_lab [GeV]
   1.0778500000000002        8.8225952077654810E-003   1.7907469234699916E-003
   1.0878500000000002       0.13986185779767613        5.7949956787355608E-002
   1.0978500000000002       0.40184206764824237        8.3751169053197350E-002
   1.1078500000000002       0.86200356454466021       0.10477994815566129     
   1.1178500000000002        1.6160192127806803       0.12352915276199301     
   1.1278500000000002        2.8072599572527950       0.14093858609154039     
   1.1378500000000003        4.6519204117299502       0.15747758787921498     
   1.1478500000000003        7.4734196048181110       0.17341767322759649     
   1.1578500000000003        11.738593509738076       0.18893112558723196     
   1.1678500000000003        18.058079315976794       0.20413449090929994     
   1.1778500000000003        27.035865881351491       0.21911041792290276     
   1.1878500000000003        38.743301790293486       0.23391968349462916     
   1.1978500000000003        51.744803059186765       0.24860828889041164     
   1.2078500000000001        62.653314927452044       0.26321188044609850     
   1.2178500000000003        68.034900221104039       0.27775862618288083     
   1.2278500000000001        67.327044665071369       0.29227115608059595     
   1.2378500000000001        62.693835658291206       0.30676791076362175     
   1.2478500000000001        56.671836713866213       0.32126410328525651     
   1.2578500000000001        50.824718932027544       0.33577242030201276     
   1.2678500000000001        45.803078483218833       0.35030354317205187     
   1.2778500000000002        41.756214179828902       0.36486654182296946     
   1.2878500000000002        38.628436047291309       0.37946917694447951     
   1.2978500000000002        36.302809839669635       0.39411813496378811     
   1.3078500000000002        34.656915372123734       0.40881921296215679     
   1.3178500000000002        33.578233490988289       0.42357746578456706     
   1.3278500000000002        32.962908773839018       0.43839732423111827     
   1.3378500000000002        32.708414751738538       0.45328269087235190     
   1.3478500000000002        32.705375913493008       0.46823701836726589     
   1.3578500000000002        32.832991857920405       0.48326337396619956     
   1.3678500000000002        32.963588493066396       0.49836449300843727     
   1.3778500000000002        32.980945753180229       0.51354282358057812     
   1.3878500000000003        32.809623436251705       0.52880056402115116     
   1.3978500000000003        32.441472365441129       0.54413969459447753     
   1.4078500000000003        31.941787601167899       0.55956200438067560     
   1.4178500000000003        31.432834176399300       0.57506911421650175     
   1.4278500000000003        31.068186174670295       0.59066249635723111     
   1.4378500000000001        31.013282561501690       0.60634349140126986     
   1.4478500000000003        31.393374727110782       0.62211332291805765     
   1.4578500000000001        32.399243867432681       0.63797311013963032     
   1.4678500000000003        34.181862920972691       0.65392387901229543     
   1.4778500000000001        36.788884686260303       0.66996657185349251     
   1.4878500000000003        40.071667140696469       0.68610205581750983     
   1.4978500000000001        43.409681722817339       0.70233113034003147     
   1.5078500000000001        45.221369812704459       0.71865453370406629     
   1.5178500000000001        45.058397821821536       0.73507294884725205     
   1.5278500000000002        43.671534004616475       0.75158700851199045     
   1.5378500000000002        41.721018933548997       0.76819729982448948     
   1.5478500000000002        39.867104649311464       0.78490436837602484     
   1.5578500000000002        38.325703989387875       0.80170872186906306     
   1.5678500000000002        37.371044380807291       0.81861083338196650     
   1.5778500000000002        37.161719131138831       0.83561114429847383     
   1.5878500000000002        37.783431628803108       0.85271006694181728     
   1.5978500000000002        39.267724762756679       0.86990798694796156     
   1.6078500000000002        41.628796188807442       0.88720526540788469     
   1.6178500000000002        44.733015855703179       0.90460224080493290     
   1.6278500000000002        48.365360069095871       0.92209923076995293     
   1.6378500000000003        52.277248377314713       0.93969653367405348     
   1.6478500000000003        56.047654055299382       0.95739443007639569     
   1.6578500000000003        59.080063005013685       0.97519318404229571     
   1.6678500000000001        60.721197981722227       0.99309304434509915     
   1.6778500000000003        60.489456389993912        1.0110942455636991     
   1.6878500000000001        58.396609864636552        1.0291970090861893     
   1.6978500000000003        54.822946331029847        1.0474015440289675     
   1.7078500000000001        50.430223160923681        1.0657080480795189     
   1.7178500000000003        45.661278702936350        1.0841167082702490     
   1.7278500000000001        41.187773342379799        1.1026277016898738     
   1.7378500000000003        37.763977166027352        1.1212411961382300     
   1.7478500000000001        34.927925940239170        1.1399573507297023     
   1.7578500000000004        32.588125117343139        1.1587763164499496     
   1.7678500000000001        30.685164368643818        1.1776982366701108     
   1.7778500000000004        29.166288223215521        1.1967232476222647     
   1.7878500000000002        27.985055624054578        1.2158514788395094     
   1.7978500000000002        27.099555403902080        1.2350830535637345     
   1.8078500000000002        26.469813711871236        1.2544180891238119     
   1.8178500000000002        26.056061730752567        1.2738566972867109     
   1.8278500000000002        25.818093333915915        1.2933989845837706     
   1.8378500000000002        25.714298050775692        1.3130450526141764     
   1.8478500000000002        25.699198365035034        1.3327949983274787     
   1.8578500000000002        25.720918773018305        1.3526489142868370     
   1.8678500000000002        25.722159098967555        1.3726068889145093     
   1.8778500000000002        25.646924775241324        1.3926690067209784     
   1.8878500000000003        25.451072646335412        1.4128353485189753     
   1.8978500000000003        25.111378256824885        1.4331059916235558     
   1.9078500000000003        24.628399488758728        1.4534810100392845     
   1.9178500000000001        24.024379330524486        1.4739604746354873     
   1.9278500000000003        23.331226763756678        1.4945444533104546     
   1.9378500000000001        22.579407475496119        1.5152330111453987     
   1.9478500000000003        21.798785455555670        1.5360262105489209     
   1.9578500000000001        21.014213602943876        1.5569241113926409     
   1.9678500000000003        20.243864901253836        1.5779267711386447     
   1.9778500000000001        19.499824351284829        1.5990342449592951     
   1.9878500000000003        18.789285074563136        1.6202465858499608     
   1.9978500000000001        18.115830981442073        1.6415638447351248     
   2.0078500000000004        17.480554353700011        1.6629860705683477     
   2.0178500000000001        16.882928349190607        1.6845133104264727     
   2.0278500000000004        16.321442260701499        1.7061456095984813     
   2.0378500000000002        15.794041389453355        1.7278830116693309     
   2.0478500000000004        15.298419386860129        1.7497255585991203     
   2.0578500000000002        14.832205093268900        1.7716732907978676     
   2.0678500000000000        14.393076732655196        1.7937262471962030     
   2.0778500000000002        13.978827533995343        1.8158844653122121     
   2.0878500000000004        13.587399702742822        1.8381479813146915     
   2.0978500000000002        13.216898309140339        1.8605168300830275     
   2.1078500000000000        12.865592832515770        1.8829910452639222     
   2.1178500000000002        12.531911447952581        1.9055706593251343     
   2.1278500000000005        12.214431341275787        1.9282557036064443     
   2.1378500000000003        11.911867135058243        1.9510462083679876     
   2.1478500000000000        11.623058714277168        1.9739422028361344     
   2.1578500000000003        11.346959222219033        1.9969437152470397     
   2.1678500000000005        11.082623663367297        2.0200507728880117     
   2.1778500000000003        10.829198337934308        2.0432634021368270     
   2.1878500000000001        10.585911200540075        2.0665816284991072     
   2.1978500000000003        10.352063155404174        2.0900054766438663     
   2.2078500000000005        10.127020253840602        2.1135349704373319     
   2.2178500000000003        9.9102067346681135        2.1371701329751454     
   2.2278500000000001        9.7010988364057607        2.1609109866130236     
   2.2378499999999999        9.4992193066227628        2.1847575529959644     
   2.2478500000000001        9.3041325351986863        2.2087098530860900     
   2.2578500000000004        9.1154402423715180        2.2327679071891824     
   2.2678500000000001        8.9327776579495559        2.2569317349799998     
   2.2778499999999999        8.7558101340936343        2.2812013555264321     
   2.2878500000000002        8.5842301401315257        2.3055767873125506     
   2.2978500000000004        8.4177545936546601        2.3300580482606206     
   2.3078500000000002        8.2561224875128953        2.3546451557521229     
   2.3178500000000000        8.0990927771985461        2.3793381266478533     
   2.3278500000000002        7.9464424974790591        2.4041369773071128     
   2.3378500000000004        7.7979650810139187        2.4290417236060722     
   2.3478500000000002        7.6534688551068726        2.4540523809553334     
   2.3578500000000000        7.5127756957400500        2.4791689643167296     
   2.3678500000000002        7.3757198206537904        2.5043914882194094     
   2.3778500000000005        7.2421467055179845        2.5297199667752257     
   2.3878500000000003        7.1119121092271262        2.5551544136934843     
   2.3978500000000000        6.9848811960791766        2.5806948422950731     
   2.4078500000000003        6.8609277441004499        2.6063412655259923     
   2.4178500000000005        6.7399334300850047        2.6320936959703309     
   2.4278500000000003        6.6217871830532395        2.6579521458627089     
   2.4378500000000001        6.5063845988233613        2.6839166271002126     
   2.4478500000000003        6.3936274092510628        2.7099871512538436     
   2.4578500000000005        6.2834230004439426        2.7361637295794994     
   2.4678500000000003        6.1756839749132650        2.7624463730285305     
   2.4778500000000001        6.0703277531990141        2.7888350922578637     
   2.4878499999999999        5.9672762110063111        2.8153298976397312     
   2.4978500000000001        5.8664553483311286        2.8419307992710157     
   2.5078500000000004        5.7677949874396885        2.8686378069822300     
   2.5178500000000001        5.6712284969055773        2.8954509303461560     
   2.5278499999999999        5.5766925392077606        2.9223701786861405     
   2.5378500000000002        5.4841268396565868        2.9493955610840836     
   2.5478500000000004        5.3934739746479536        2.9765270863881130     
   2.5578500000000002        5.3046791774520177        3.0037647632199751     
   2.5678500000000000        5.2176901599257501        3.0311085999821534     
   2.5778500000000002        5.1324569487008436        3.0585586048647104     
   2.5878500000000004        5.0489317345427427        3.0861147858518785     
   2.5978500000000002        4.9670687337050019        3.1137771507284118     
   2.6078500000000000        4.8868240602177364        3.1415457070857102     
   2.6178500000000002        4.8081556081512868        3.1694204623277056     
   2.6278500000000005        4.7310229429875923        3.1974014236765460     
   2.6378500000000003        4.6553872013137356        3.2254885981780701     
   2.6478500000000000        4.5812109981256741        3.2536819927070968     
   2.6578500000000003        4.5084583410960697        3.2819816139725093     
   2.6678500000000005        4.4370945512195217        3.3103874685221708     
   2.6778500000000003        4.3670861893018653        3.3388995627476659     
   2.6878500000000001        4.2984009878083809        3.3675179028888773     
   2.6978500000000003        4.2310077876292107        3.3962424950383996     
   2.7078500000000005        4.1648764793595277        3.4250733451458006     
   2.7178500000000003        4.0999779487274104        3.4540104590217409     
   2.7278500000000001        4.0362840258346191        3.4830538423419521     
   2.7378500000000003        3.9737674379045353        3.5122035006510743     
   2.7478500000000001        3.9124017652579113        3.5414594393663674     
   2.7578500000000004        3.8521614002610005        3.5708216637813033     
   2.7678500000000001        3.7930215090125707        3.6002901790690247     
   2.7778499999999999        3.7349579955558858        3.6298649902857050     
   2.7878500000000002        3.6779474684199092        3.6595461023737843     
   2.7978500000000004        3.6219672093103537        3.6893335201651043     
   2.8078500000000002        3.5669951437860572        3.7192272483839410     
   2.8178500000000000        3.5130098137699157        3.7492272916499418     
   2.8278500000000002        3.4599903517559651        3.7793336544809581     
   2.8378500000000004        3.4079164565855633        3.8095463412957953     
   2.8478500000000002        3.3567683706759883        3.8398653564168708     
   2.8578500000000000        3.3065268585942391        3.8702907040727919     
   2.8678500000000002        3.2571731868775271        3.9008223884008499     
   2.8778500000000005        3.2086891050098143        3.9314604134494235     
   2.8878500000000003        3.1610568274710316        3.9622047831803320     
   2.8978500000000000        3.1142590167822490        3.9930555014710927     
   2.9078500000000003        3.0682787674761713        4.0240125721171225     
   2.9178500000000005        3.0230995909278828        4.0550759988338543     
   2.9278500000000003        2.9787054009858678        4.0862457852588134     
   2.9378500000000001        2.9350805003480493        4.1175219349536096     
   2.9478500000000003        2.8922095676318893        4.1489044514058770     
   2.9578500000000005        2.8500776450914911        4.1803933380311511     
   2.9678500000000003        2.8086701269383458        4.2119885981746963     
   2.9778500000000001        2.7679727482255978        4.2436902351132737     
   2.9878500000000003        2.7279715742588624        4.2754982520568579     
   2.9978500000000001        2.6886529904993712        4.3074126521502940     
   3.0078500000000004        2.6500036929277964        4.3394334384749280     
   3.0178500000000001        2.6120106788395563        4.3715606140501588     
   3.0278499999999999        2.5746612380444764        4.4037941818349760     
   3.0378500000000002        2.5379429444458053        4.4361341447294258     
   3.0478500000000004        2.5018436479753507        4.4685805055760532     
   3.0578500000000002        2.4663514668632467        4.5011332671612925     
   3.0678500000000000        2.4314547802223916        4.5337924322168224     
   3.0778500000000002        2.3971422209291231        4.5665580034208864     
   3.0878500000000004        2.3634026687829204        4.5994299833995553     
   3.0978500000000002        2.3302252439292275        4.6324083747279863     
   3.1078500000000004        2.2975993005305915        4.6654931799316204     
   3.1178500000000002        2.2655144206723805        4.6986844014873537     
   3.1278500000000000        2.2339604084902556        4.7319820418246845     
   3.1378500000000003        2.2029272845075156        4.7653861033268168     
   3.1478500000000000        2.1724052801712417        4.7988965883317327     
   3.1578500000000003        2.1423848325768726        4.8325134991332579     
   3.1678500000000001        2.1128565793716279        4.8662368379820533     
   3.1778500000000003        2.0838113538277727        4.9000666070866368     
   3.1878500000000001        2.0552401800773543        4.9340028086143217     
   3.1978500000000003        2.0271342685005571        4.9680454446921738     
   3.2078500000000001        1.9994850112603881        5.0021945174079114     
   3.2178500000000003        1.9722839779768109        5.0364500288108012     
   3.2278500000000001        1.9455229115339461        5.0708119809125174     
   3.2378500000000003        1.9191937240143051        5.1052803756879941     
   3.2478500000000001        1.8932884927544571        5.1398552150762278     
   3.2578500000000004        1.8677994565168126        5.1745365009810929     
   3.2678500000000001        1.8427190117726053        5.2093242352721036     
   3.2778500000000004        1.8180397090913538        5.2442184197851818     
   3.2878500000000002        1.7937542496324861        5.2792190563233827     
   3.2978500000000004        1.7698554817349379        5.3143261466576268     
   3.3078500000000002        1.7463363976008826        5.3495396925273839     
   3.3178500000000004        1.7231901300698924        5.3848596956413681     
   3.3278500000000002        1.7004099494801119        5.4202861576781860     
   3.3378500000000004        1.6779892606131241        5.4558190802870010     
   3.3478500000000002        1.6559215997194792        5.4914584650881455     
   3.3578500000000004        1.6342006316219075        5.5272043136737539     
   3.3678500000000002        1.6128201468934968        5.5630566276083444     
   3.3778500000000005        1.5917740591081777        5.5990154084294135     
   3.3878500000000003        1.5710564021610511        5.6350806576480013     
   3.3978500000000000        1.5506613276561774        5.6712523767492486     
   3.4078500000000003        1.5305831023595962        5.7075305671929364     
   3.4178500000000001        1.5108161057154379        5.7439152304140135     
   3.4278500000000003        1.4913548274230857        5.7804063678231108     
   3.4378500000000001        1.4721938650734654        5.8170039808070495     
   3.4478500000000003        1.4533279218425967        5.8537080707293221     
   3.4578500000000001        1.4347518042406677        5.8905186389305761     
   3.4678500000000003        1.4164604199149211        5.9274356867290825     
   3.4778500000000001        1.3984487755047676        5.9644592154211802     
   3.4878500000000003        1.3807119745475576        6.0015892262817410     
   3.4978500000000001        1.3632452154335692        6.0388257205645752     
   3.5078500000000004        1.3460437894087582        6.0761686995028841     
   3.5178500000000001        1.3291030786239599        6.1136181643096457     
   3.5278500000000004        1.3124185542291906        6.1511741161780460     
   3.5378500000000002        1.2959857745118406        6.1888365562818448     
   3.5478500000000004        1.2798003830775317        6.2266054857757842     
